# Wavelength, 1-sigma systematic calibration / radiative transfer errors
 376.860 0.136342
 381.870 0.125881
 386.880 0.115629
 391.890 0.105625
 396.890 0.095904
 401.900 0.086472
 406.910 0.077316
 411.920 0.068428
 416.930 0.059810
 421.940 0.051434
 426.950 0.043255
 431.960 0.035227
 436.960 0.027561
 441.970 0.023422
 446.980 0.020281
 451.990 0.017944
 457.000 0.016402
 462.010 0.015641
 467.020 0.015252
 472.020 0.014924
 477.030 0.014544
 482.040 0.014189
 487.050 0.013873
 492.060 0.013455
 497.070 0.012845
 502.080 0.012081
 507.090 0.011312
 512.090 0.010697
 517.100 0.010301
 522.110 0.010019
 527.120 0.009772
 532.130 0.009511
 537.140 0.009139
 542.150 0.008592
 547.150 0.007919
 552.160 0.007199
 557.170 0.006483
 562.180 0.005882
 567.190 0.005456
 572.200 0.005181
 577.210 0.004959
 582.220 0.004720
 587.220 0.004475
 592.230 0.004236
 597.240 0.004020
 602.250 0.003870
 607.260 0.003832
 612.270 0.003867
 617.280 0.003958
 622.280 0.004047
 627.290 0.004100
 632.300 0.004156
 637.310 0.004247
 642.320 0.004376
 647.330 0.004509
 652.340 0.004607
 657.350 0.004624
 662.350 0.004557
 667.360 0.004420
 672.370 0.004213
 677.380 0.003968
 682.390 0.003732
 687.400 0.003532
 692.410 0.003352
 697.410 0.003184
 702.420 0.003026
 707.430 0.002904
 712.440 0.002866
 717.450 0.002971
 722.460 0.003248
 727.470 0.003641
 732.480 0.004084
 737.480 0.004508
 742.490 0.004876
 747.500 0.005187
 752.510 0.005443
 757.520 0.005638
 762.530 0.005785
 767.540 0.005893
 772.540 0.005923
 777.550 0.005825
 782.560 0.005564
 787.570 0.005176
 792.580 0.004739
 797.590 0.004300
 802.600 0.003929
 807.610 0.003662
 812.610 0.003483
 817.620 0.003334
 822.630 0.003206
 827.640 0.003142
 832.650 0.003191
 837.660 0.003346
 842.670 0.003550
 847.670 0.003746
 852.680 0.003910
 857.690 0.004002
 862.700 0.003990
 867.710 0.003899
 872.720 0.003783
 877.730 0.003735
 882.740 0.003830
 887.740 0.004093
 892.750 0.004587
 897.760 0.005335
 902.770 0.006258
 907.780 0.007237
 912.790 0.008157
 917.800 0.008938
 922.810 0.009539
 927.810 0.009961
 932.820 0.010230
 937.830 0.010353
 942.840 0.010311
 947.850 0.010056
 952.860 0.009535
 957.870 0.008748
 962.870 0.007748
 967.880 0.006661
 972.890 0.005629
 977.900 0.004768
 982.910 0.004156
 987.920 0.003769
 992.930 0.003504
 997.940 0.003263
1002.940 0.002994
1007.950 0.002703
1012.960 0.002427
1017.970 0.002208
1022.980 0.002060
1027.990 0.001984
1033.000 0.001988
1038.000 0.002073
1043.010 0.002219
1048.020 0.002401
1053.030 0.002587
1058.040 0.002784
1063.050 0.002988
1068.060 0.003208
1073.070 0.003436
1078.070 0.003664
1083.080 0.003882
1088.090 0.004143
1093.100 0.004473
1098.110 0.004863
1103.120 0.005350
1108.130 0.005876
1113.130 0.006369
1118.140 0.006766
1123.150 0.007018
1128.160 0.007136
1133.170 0.007161
1138.180 0.007101
1143.190 0.006990
1148.200 0.006862
1153.200 0.006664
1158.210 0.006369
1163.220 0.005957
1168.230 0.005453
1173.240 0.004916
1178.250 0.004421
1183.260 0.003987
1188.260 0.003655
1193.270 0.003457
1198.280 0.003323
1203.290 0.003221
1208.300 0.003115
1213.310 0.002974
1218.320 0.002842
1223.330 0.002789
1228.330 0.002832
1233.340 0.002962
1238.350 0.003172
1243.360 0.003462
1248.370 0.003828
1253.380 0.004242
1258.390 0.004677
1263.390 0.005151
1268.400 0.005671
1273.410 0.006245
1278.420 0.006983
1283.430 0.008190
1288.440 0.010341
1293.450 0.013983
1298.460 0.019628
1303.460 0.027605
1308.470 0.038004
1313.480 0.053046
1318.490 0.079204
1323.500 0.115491
1328.510 0.156180
1333.520 0.195417
1338.520 0.229035
1343.530 0.254826
1348.540 0.272338
1353.550 0.282241
1358.560 0.285876
1363.570 0.284404
1368.580 0.276607
1373.590 0.260939
1378.590 0.236600
1383.600 0.204069
1388.610 0.165615
1393.620 0.125541
1398.630 0.089689
1403.640 0.063613
1408.650 0.048441
1413.650 0.037545
1418.660 0.028423
1423.670 0.021323
1428.680 0.016255
1433.690 0.012853
1438.700 0.010717
1443.710 0.009396
1448.720 0.008579
1453.720 0.008129
1458.730 0.007979
1463.740 0.008070
1468.750 0.008290
1473.760 0.008573
1478.770 0.008802
1483.780 0.008830
1488.780 0.008549
1493.790 0.007991
1498.800 0.007302
1503.810 0.006744
1508.820 0.006467
1513.830 0.006451
1518.840 0.006523
1523.850 0.006526
1528.850 0.006460
1533.860 0.006398
1538.870 0.006470
1543.880 0.006723
1548.890 0.007127
1553.900 0.007606
1558.910 0.008008
1563.910 0.008308
1568.920 0.008594
1573.930 0.008931
1578.940 0.009335
1583.950 0.009766
1588.960 0.010132
1593.970 0.010340
1598.980 0.010294
1603.980 0.010021
1608.990 0.009620
1614.000 0.009217
1619.010 0.008874
1624.020 0.008590
1629.030 0.008296
1634.040 0.007878
1639.040 0.007345
1644.050 0.006763
1649.060 0.006193
1654.070 0.005713
1659.080 0.005362
1664.090 0.005082
1669.100 0.004816
1674.110 0.004514
1679.110 0.004179
1684.120 0.003849
1689.130 0.003585
1694.140 0.003440
1699.150 0.003464
1704.160 0.003613
1709.170 0.003807
1714.170 0.003994
1719.180 0.004141
1724.190 0.004253
1729.200 0.004392
1734.210 0.004601
1739.220 0.004858
1744.230 0.005099
1749.240 0.005251
1754.240 0.005261
1759.250 0.005118
1764.260 0.004831
1769.270 0.004487
1774.280 0.004299
1779.290 0.004547
1784.300 0.005270
1789.300 0.006261
1794.310 0.007319
1799.320 0.008478
1804.330 0.009677
1809.340 0.010814
1814.350 0.011906
1819.360 0.012950
1824.370 0.013935
1829.370 0.014858
1834.380 0.015803
1839.390 0.017081
1844.400 0.019141
1849.410 0.022477
1854.420 0.027600
1859.430 0.034761
1864.440 0.043595
1869.440 0.053873
1874.450 0.065366
1879.460 0.077271
1884.470 0.088378
1889.480 0.097503
1894.490 0.103759
1899.500 0.106829
1904.500 0.106792
1909.510 0.103803
1914.520 0.098234
1919.530 0.090451
1924.540 0.080734
1929.550 0.069530
1934.560 0.057491
1939.570 0.045469
1944.570 0.034331
1949.580 0.024835
1954.590 0.017643
1959.600 0.013342
1964.610 0.011562
1969.620 0.011282
1974.630 0.011729
1979.630 0.012540
1984.640 0.013534
1989.650 0.014518
1994.660 0.015384
1999.670 0.016033
2004.680 0.016404
2009.690 0.016531
2014.700 0.016466
2019.700 0.016185
2024.710 0.015640
2029.720 0.014796
2034.730 0.013688
2039.740 0.012370
2044.750 0.010973
2049.760 0.009693
2054.760 0.008740
2059.770 0.008251
2064.780 0.008181
2069.790 0.008401
2074.800 0.008776
2079.810 0.009110
2084.820 0.009260
2089.830 0.009171
2094.830 0.008858
2099.840 0.008395
2104.850 0.007875
2109.860 0.007366
2114.870 0.006888
2119.880 0.006449
2124.890 0.006027
2129.890 0.005552
2134.900 0.005044
2139.910 0.004534
2144.920 0.004113
2149.930 0.003909
2154.940 0.003986
2159.950 0.004268
2164.960 0.004651
2169.960 0.004984
2174.970 0.005206
2179.980 0.005362
2184.990 0.005492
2190.000 0.005636
2195.010 0.005774
2200.020 0.005836
2205.020 0.005775
2210.030 0.005569
2215.040 0.005206
2220.050 0.004777
2225.060 0.004426
2230.070 0.004228
2235.080 0.004192
2240.090 0.004261
2245.090 0.004349
2250.100 0.004389
2255.110 0.004363
2260.120 0.004265
2265.130 0.004165
2270.140 0.004183
2275.150 0.004362
2280.150 0.004641
2285.160 0.004899
2290.170 0.005038
2295.180 0.005046
2300.190 0.004998
2305.200 0.005025
2310.210 0.005242
2315.220 0.005634
2320.220 0.006094
2325.230 0.006493
2330.240 0.006767
2335.250 0.006899
2340.260 0.006872
2345.270 0.006705
2350.280 0.006489
2355.280 0.006358
2360.290 0.006348
2365.300 0.006397
2370.310 0.006397
2375.320 0.006320
2380.330 0.006220
2385.340 0.006270
2390.350 0.006683
2395.350 0.007726
2400.360 0.009824
2405.370 0.013211
2410.380 0.017472
2415.390 0.021881
2420.400 0.025827
2425.410 0.028970
2430.410 0.031242
2435.420 0.032739
2440.430 0.033584
2445.440 0.033843
2450.450 0.033445
2455.460 0.030632
2460.470 0.027897
2465.480 0.025001
2470.480 0.021894
2475.490 0.018589
2480.500 0.015121
2485.510 0.011533
2490.520 0.007875
2495.530 0.004197
2500.540 0.000541
