#wavlengths (nm), Water Real, Water Imaginary, Ice Real, Ice Imaginary
0400,1.338100000,1.90E-09,1.3194,2.71E-09
0405,1.338000000,1.72E-09,1.3190,2.62E-09
0410,1.337900000,1.59E-09,1.3185,2.51E-09
0415,1.337800000,1.48E-09,1.3181,2.38E-09
0420,1.337700000,1.39E-09,1.3178,2.26E-09
0425,1.337600000,1.30E-09,1.3174,2.17E-09
0430,1.337500000,1.22E-09,1.3170,2.08E-09
0435,1.337400000,1.15E-09,1.3167,1.99E-09
0440,1.337300000,1.09E-09,1.3163,1.91E-09
0445,1.337100000,1.04E-09,1.3160,1.70E-09
0450,1.336900000,1.00E-09,1.3157,1.54E-09
0455,1.336700000,9.72E-10,1.3154,1.53E-09
0460,1.336500000,9.55E-10,1.3151,1.53E-09
0465,1.336300000,9.46E-10,1.3148,1.54E-09
0470,1.336100000,9.41E-10,1.3145,1.55E-09
0475,1.335900000,9.40E-10,1.3143,1.59E-09
0480,1.335700000,9.41E-10,1.3140,1.64E-09
0485,1.335500000,9.47E-10,1.3137,1.71E-09
0490,1.335300000,9.59E-10,1.3135,1.78E-09
0495,1.335100000,9.76E-10,1.3133,1.84E-09
0500,1.334900000,1.00E-09,1.3130,1.91E-09
0505,1.334700000,1.04E-09,1.3128,2.02E-09
0510,1.334505556,1.08E-09,1.3126,2.14E-09
0515,1.334322222,1.14E-09,1.3124,2.20E-09
0520,1.334155556,1.22E-09,1.3122,2.26E-09
0525,1.334000000,1.30E-09,1.3119,2.39E-09
0530,1.333855556,1.40E-09,1.3118,2.54E-09
0535,1.333711111,1.52E-09,1.3116,2.75E-09
0540,1.333566667,1.66E-09,1.3114,2.93E-09
0545,1.333422222,1.82E-09,1.3112,3.02E-09
0550,1.333277778,2.00E-09,1.3110,3.11E-09
0555,1.333133333,2.21E-09,1.3108,3.20E-09
0560,1.333000000,2.47E-09,1.3106,3.29E-09
0565,1.332877778,2.78E-09,1.3105,3.39E-09
0570,1.332766667,3.16E-09,1.3103,3.52E-09
0575,1.332666667,3.60E-09,1.3101,3.73E-09
0580,1.332577778,4.36E-09,1.3100,4.04E-09
0585,1.332494444,5.68E-09,1.3098,4.44E-09
0590,1.332405556,7.52E-09,1.3097,4.88E-09
0595,1.332316667,9.55E-09,1.3095,5.29E-09
0600,1.332222222,1.10E-08,1.3094,5.73E-09
0605,1.332116667,1.18E-08,1.3092,6.26E-09
0610,1.332000000,1.25E-08,1.3091,6.89E-09
0615,1.331883333,1.30E-08,1.3090,7.69E-09
0620,1.331766667,1.36E-08,1.3088,8.58E-09
0625,1.331661111,1.40E-08,1.3087,9.50E-09
0630,1.331572222,1.44E-08,1.3086,1.04E-08
0635,1.331511111,1.46E-08,1.3084,1.13E-08
0640,1.331488889,1.49E-08,1.3083,1.22E-08
0645,1.331488889,1.53E-08,1.3082,1.32E-08
0650,1.331488889,1.60E-08,1.3080,1.43E-08
0655,1.331488889,1.69E-08,1.3079,1.54E-08
0660,1.331488889,1.80E-08,1.3078,1.66E-08
0665,1.331488889,1.93E-08,1.3077,1.78E-08
0670,1.331488889,2.06E-08,1.3076,1.89E-08
0675,1.331494444,2.20E-08,1.3074,1.99E-08
0680,1.331516667,2.34E-08,1.3073,2.09E-08
0685,1.331550000,2.50E-08,1.3072,2.22E-08
0690,1.331594444,2.72E-08,1.3071,2.40E-08
0695,1.331650000,3.08E-08,1.3070,2.64E-08
0700,1.331711111,3.60E-08,1.3069,2.90E-08
0705,1.331772222,4.20E-08,1.3068,3.16E-08
0710,1.331833333,4.91E-08,1.3067,3.44E-08
0715,1.331888889,5.72E-08,1.3066,3.73E-08
0720,1.331905556,6.69E-08,1.3065,4.03E-08
0725,1.331888889,7.83E-08,1.3064,4.18E-08
0730,1.331844444,1.05E-07,1.3062,4.30E-08
0735,1.331788889,1.38E-07,1.3061,4.57E-08
0740,1.331733333,1.53E-07,1.3060,4.92E-08
0745,1.331677778,1.61E-07,1.3059,5.36E-08
0750,1.331622222,1.68E-07,1.3058,5.87E-08
0755,1.331566667,1.66E-07,1.3058,6.45E-08
0760,1.331511111,1.62E-07,1.3057,7.08E-08
0765,1.331455556,1.58E-07,1.3056,7.80E-08
0770,1.331388889,1.53E-07,1.3055,8.58E-08
0775,1.331277778,1.49E-07,1.3054,9.39E-08
0780,1.331166667,1.44E-07,1.3053,1.02E-07
0785,1.331055556,1.40E-07,1.3052,1.10E-07
0790,1.330944444,1.36E-07,1.3051,1.18E-07
0795,1.330833333,1.32E-07,1.3050,1.27E-07
0800,1.330722222,1.29E-07,1.3049,1.34E-07
0805,1.330616667,1.26E-07,1.3048,1.38E-07
0810,1.330544444,1.24E-07,1.3047,1.40E-07
0815,1.330488889,1.24E-07,1.3046,1.42E-07
0820,1.330433333,1.31E-07,1.3046,1.43E-07
0825,1.330377778,1.52E-07,1.3045,1.44E-07
0830,1.330322222,1.85E-07,1.3044,1.45E-07
0835,1.330261111,2.11E-07,1.3043,1.46E-07
0840,1.330177778,2.34E-07,1.3042,1.51E-07
0845,1.330072222,2.54E-07,1.3041,1.65E-07
0850,1.329961111,2.67E-07,1.3040,1.83E-07
0855,1.329850000,2.77E-07,1.3039,1.98E-07
0860,1.329750000,2.88E-07,1.3038,2.15E-07
0865,1.329694444,3.04E-07,1.3038,2.38E-07
0870,1.329638889,3.23E-07,1.3037,2.65E-07
0875,1.329583333,3.43E-07,1.3036,2.98E-07
0880,1.329527778,3.66E-07,1.3035,3.35E-07
0885,1.329472222,3.91E-07,1.3034,3.69E-07
0890,1.329416667,4.17E-07,1.3033,3.92E-07
0895,1.329361111,4.45E-07,1.3032,4.07E-07
0900,1.329300000,4.76E-07,1.3032,4.20E-07
0905,1.329200000,5.10E-07,1.3031,4.32E-07
0910,1.329088889,5.52E-07,1.3030,4.44E-07
0915,1.328977778,6.19E-07,1.3029,4.58E-07
0920,1.328866667,7.19E-07,1.3028,4.74E-07
0925,1.328761111,8.50E-07,1.3027,4.92E-07
0930,1.328677778,1.01E-06,1.3027,5.11E-07
0935,1.328616667,1.20E-06,1.3026,5.32E-07
0940,1.328561111,1.42E-06,1.3025,5.53E-07
0945,1.328505556,1.72E-06,1.3024,5.74E-07
0950,1.328450000,2.18E-06,1.3023,6.02E-07
0955,1.328394444,2.75E-06,1.3022,6.67E-07
0960,1.328338889,3.40E-06,1.3022,7.55E-07
0965,1.328283333,3.90E-06,1.3021,8.37E-07
0970,1.328227778,3.99E-06,1.3020,9.26E-07
0975,1.328172222,3.97E-06,1.3019,1.02E-06
0980,1.328116667,3.93E-06,1.3018,1.12E-06
0985,1.328061111,3.83E-06,1.3017,1.22E-06
0990,1.328011111,3.70E-06,1.3017,1.33E-06
0995,1.328000000,3.53E-06,1.3016,1.47E-06
1000,1.328000000,3.31E-06,1.3015,1.62E-06
1005,1.328000000,3.08E-06,1.3014,1.80E-06
1010,1.328000000,2.83E-06,1.3013,2.00E-06
1015,1.328000000,2.56E-06,1.3012,2.16E-06
1020,1.328000000,2.33E-06,1.3012,2.25E-06
1025,1.328000000,2.12E-06,1.3011,2.30E-06
1030,1.327988889,1.93E-06,1.3010,2.33E-06
1035,1.327950000,1.77E-06,1.3009,2.35E-06
1040,1.327894444,1.62E-06,1.3008,2.33E-06
1045,1.327838889,1.49E-06,1.3007,2.27E-06
1050,1.327783333,1.41E-06,1.3007,2.17E-06
1055,1.327727778,1.34E-06,1.3006,2.06E-06
1060,1.327672222,1.29E-06,1.3005,1.96E-06
1065,1.327616667,1.26E-06,1.3004,1.88E-06
1070,1.327561111,1.26E-06,1.3003,1.81E-06
1075,1.327505556,1.29E-06,1.3002,1.76E-06
1080,1.327450000,1.34E-06,1.3001,1.74E-06
1085,1.327366667,1.41E-06,1.3001,1.73E-06
1090,1.327255556,1.49E-06,1.3000,1.73E-06
1095,1.327144444,1.59E-06,1.2999,1.71E-06
1100,1.327033333,1.71E-06,1.2998,1.70E-06
1105,1.326922222,1.84E-06,1.2997,1.73E-06
1110,1.326811111,2.01E-06,1.2996,1.76E-06
1115,1.326700000,2.22E-06,1.2995,1.79E-06
1120,1.326600000,2.54E-06,1.2994,1.82E-06
1125,1.326527778,3.06E-06,1.2994,1.91E-06
1130,1.326472222,3.77E-06,1.2993,2.04E-06
1135,1.326405556,4.68E-06,1.2992,2.15E-06
1140,1.326311111,5.84E-06,1.2991,2.25E-06
1145,1.326200000,7.35E-06,1.2990,2.24E-06
1150,1.326088889,9.06E-06,1.2989,2.29E-06
1155,1.325977778,1.03E-05,1.2988,2.62E-06
1160,1.325866667,1.08E-05,1.2987,3.04E-06
1165,1.325755556,1.10E-05,1.2986,3.42E-06
1170,1.325644444,1.13E-05,1.2986,3.84E-06
1175,1.325561111,1.15E-05,1.2985,4.29E-06
1180,1.325505556,1.16E-05,1.2984,4.77E-06
1185,1.325450000,1.17E-05,1.2983,5.26E-06
1190,1.325394444,1.18E-05,1.2982,5.76E-06
1195,1.325338889,1.19E-05,1.2981,6.22E-06
1200,1.325283333,1.20E-05,1.2980,6.71E-06
1205,1.325227778,1.20E-05,1.2979,7.61E-06
1210,1.325161111,1.20E-05,1.2978,8.66E-06
1215,1.325066667,1.19E-05,1.2977,9.50E-06
1220,1.324955556,1.18E-05,1.2976,1.02E-05
1225,1.324855556,1.17E-05,1.2975,1.08E-05
1230,1.324783333,1.16E-05,1.2974,1.13E-05
1235,1.324727778,1.15E-05,1.2973,1.18E-05
1240,1.324672222,1.13E-05,1.2972,1.22E-05
1245,1.324616667,1.12E-05,1.2971,1.26E-05
1250,1.324561111,1.10E-05,1.2971,1.29E-05
1255,1.324505556,1.09E-05,1.2970,1.31E-05
1260,1.324450000,1.08E-05,1.2969,1.32E-05
1265,1.324394444,1.08E-05,1.2968,1.34E-05
1270,1.324338889,1.08E-05,1.2967,1.35E-05
1275,1.324277778,1.10E-05,1.2966,1.35E-05
1280,1.324194444,1.13E-05,1.2965,1.33E-05
1285,1.324088889,1.18E-05,1.2964,1.32E-05
1290,1.323977778,1.24E-05,1.2963,1.32E-05
1295,1.323866667,1.32E-05,1.2962,1.32E-05
1300,1.323766667,1.40E-05,1.2961,1.32E-05
1305,1.323694444,1.50E-05,1.2959,1.32E-05
1310,1.323638889,1.61E-05,1.2958,1.31E-05
1315,1.323583333,1.73E-05,1.2957,1.31E-05
1320,1.323527778,1.87E-05,1.2956,1.32E-05
1325,1.323472222,2.03E-05,1.2955,1.32E-05
1330,1.323405556,2.23E-05,1.2954,1.32E-05
1335,1.323322222,2.49E-05,1.2953,1.33E-05
1340,1.323222222,2.89E-05,1.2952,1.34E-05
1345,1.323111111,3.44E-05,1.2951,1.36E-05
1350,1.323000000,4.02E-05,1.2950,1.39E-05
1355,1.322888889,4.50E-05,1.2949,1.41E-05
1360,1.322777778,4.93E-05,1.2948,1.42E-05
1365,1.322666667,5.39E-05,1.2946,1.45E-05
1370,1.322566667,5.96E-05,1.2945,1.48E-05
1375,1.322466667,6.73E-05,1.2944,1.52E-05
1380,1.322361111,7.71E-05,1.2943,1.58E-05
1385,1.322250000,8.94E-05,1.2942,1.65E-05
1390,1.322138889,1.05E-04,1.2941,1.74E-05
1395,1.322027778,1.30E-04,1.2939,1.85E-05
1400,1.321916667,1.67E-04,1.2938,1.98E-05
1405,1.321805556,2.12E-04,1.2937,2.13E-05
1410,1.321694444,2.53E-04,1.2936,2.50E-05
1415,1.321583333,2.89E-04,1.2934,3.60E-05
1420,1.321483333,3.20E-04,1.2933,5.40E-05
1425,1.321400000,3.42E-04,1.2931,7.50E-05
1430,1.321327778,3.55E-04,1.2930,1.04E-04
1435,1.321255556,3.61E-04,1.2928,1.46E-04
1440,1.321161111,3.64E-04,1.2927,2.03E-04
1445,1.321055556,3.63E-04,1.2926,2.47E-04
1450,1.320944444,3.62E-04,1.2925,2.78E-04
1455,1.320838889,3.60E-04,1.2924,3.15E-04
1460,1.320744444,3.55E-04,1.2923,3.51E-04
1465,1.320672222,3.48E-04,1.2922,3.85E-04
1470,1.320611111,3.36E-04,1.2921,4.22E-04
1475,1.320544444,3.20E-04,1.2920,4.63E-04
1480,1.320466667,3.03E-04,1.2919,5.09E-04
1485,1.320372222,2.85E-04,1.2918,5.50E-04
1490,1.320266667,2.67E-04,1.2917,5.76E-04
1495,1.320155556,2.49E-04,1.2916,5.90E-04
1500,1.320044444,2.32E-04,1.2916,5.94E-04
1505,1.319933333,2.16E-04,1.2915,5.88E-04
1510,1.319822222,2.01E-04,1.2914,5.75E-04
1515,1.319711111,1.88E-04,1.2913,5.64E-04
1520,1.319600000,1.78E-04,1.2912,5.57E-04
1525,1.319488889,1.69E-04,1.2911,5.51E-04
1530,1.319388889,1.61E-04,1.2910,5.44E-04
1535,1.319283333,1.53E-04,1.2909,5.36E-04
1540,1.319177778,1.46E-04,1.2908,5.19E-04
1545,1.319066667,1.39E-04,1.2907,5.01E-04
1550,1.318955556,1.33E-04,1.2906,4.83E-04
1555,1.318850000,1.27E-04,1.2904,4.66E-04
1560,1.318744444,1.22E-04,1.2903,4.49E-04
1565,1.318650000,1.18E-04,1.2902,4.33E-04
1570,1.318555556,1.14E-04,1.2901,4.18E-04
1575,1.318466667,1.10E-04,1.2899,4.03E-04
1580,1.318377778,1.07E-04,1.2898,3.89E-04
1585,1.318288889,1.04E-04,1.2897,3.75E-04
1590,1.318188889,1.00E-04,1.2895,3.64E-04
1595,1.318077778,9.72E-05,1.2894,3.58E-04
1600,1.317955556,9.42E-05,1.2893,3.55E-04
1605,1.317822222,9.14E-05,1.2891,3.51E-04
1610,1.317683333,8.88E-05,1.2890,3.44E-04
1615,1.317544444,8.63E-05,1.2889,3.32E-04
1620,1.317411111,8.43E-05,1.2887,3.18E-04
1625,1.317283333,8.27E-05,1.2886,3.03E-04
1630,1.317150000,8.14E-05,1.2884,2.90E-04
1635,1.317011111,8.02E-05,1.2883,2.76E-04
1640,1.316861111,7.91E-05,1.2881,2.63E-04
1645,1.316700000,7.80E-05,1.2880,2.52E-04
1650,1.316527778,7.71E-05,1.2878,2.41E-04
1655,1.316344444,7.63E-05,1.2877,2.31E-04
1660,1.316161111,7.56E-05,1.2875,2.22E-04
1665,1.315983333,7.51E-05,1.2874,2.13E-04
1670,1.315805556,7.47E-05,1.2872,2.04E-04
1675,1.315622222,7.45E-05,1.2871,1.96E-04
1680,1.315444444,7.46E-05,1.2869,1.89E-04
1685,1.315272222,7.50E-05,1.2867,1.82E-04
1690,1.315111111,7.55E-05,1.2866,1.76E-04
1695,1.314961111,7.62E-05,1.2864,1.71E-04
1700,1.314827778,7.71E-05,1.2862,1.66E-04
1705,1.314705556,7.82E-05,1.2861,1.62E-04
1710,1.314588889,7.95E-05,1.2859,1.58E-04
1715,1.314477778,8.12E-05,1.2857,1.55E-04
1720,1.314372222,8.33E-05,1.2856,1.51E-04
1725,1.314266667,8.60E-05,1.2854,1.48E-04
1730,1.314161111,8.90E-05,1.2852,1.45E-04
1735,1.314050000,9.23E-05,1.2850,1.42E-04
1740,1.313938889,9.57E-05,1.2849,1.39E-04
1745,1.313827778,9.92E-05,1.2847,1.36E-04
1750,1.313705556,1.03E-04,1.2845,1.34E-04
1755,1.313572222,1.06E-04,1.2843,1.31E-04
1760,1.313444444,1.10E-04,1.2841,1.28E-04
1765,1.313327778,1.14E-04,1.2839,1.25E-04
1770,1.313216667,1.18E-04,1.2838,1.22E-04
1775,1.313105556,1.22E-04,1.2836,1.19E-04
1780,1.312988889,1.26E-04,1.2834,1.16E-04
1785,1.312861111,1.30E-04,1.2832,1.12E-04
1790,1.312722222,1.33E-04,1.2830,1.09E-04
1795,1.312572222,1.34E-04,1.2828,1.06E-04
1800,1.312416667,1.36E-04,1.2826,1.03E-04
1805,1.312261111,1.37E-04,1.2824,1.00E-04
1810,1.312100000,1.37E-04,1.2822,9.70E-05
1815,1.311944444,1.37E-04,1.2820,9.41E-05
1820,1.311788889,1.37E-04,1.2818,9.12E-05
1825,1.311638889,1.38E-04,1.2816,8.85E-05
1830,1.311488889,1.40E-04,1.2814,8.60E-05
1835,1.311344444,1.42E-04,1.2812,8.39E-05
1840,1.311216667,1.45E-04,1.2809,8.22E-05
1845,1.311094444,1.50E-04,1.2807,8.09E-05
1850,1.310972222,1.56E-04,1.2805,8.03E-05
1855,1.310844444,1.68E-04,1.2802,8.50E-05
1860,1.310711111,2.02E-04,1.2800,9.90E-05
1865,1.310577778,2.62E-04,1.2797,1.22E-04
1870,1.310438889,3.56E-04,1.2795,1.50E-04
1875,1.310305556,4.87E-04,1.2792,1.79E-04
1880,1.310172222,6.48E-04,1.2790,2.12E-04
1885,1.310038889,8.13E-04,1.2787,2.51E-04
1890,1.309894444,9.49E-04,1.2785,2.95E-04
1895,1.309738889,1.10E-03,1.2782,3.45E-04
1900,1.309577778,1.25E-03,1.2780,4.03E-04
1905,1.309405556,1.42E-03,1.2777,4.69E-04
1910,1.309222222,1.57E-03,1.2775,5.46E-04
1915,1.309027778,1.71E-03,1.2773,6.32E-04
1920,1.308833333,1.82E-03,1.2770,7.18E-04
1925,1.308633333,1.89E-03,1.2768,7.88E-04
1930,1.308427778,1.91E-03,1.2766,8.52E-04
1935,1.308222222,1.92E-03,1.2764,9.16E-04
1940,1.308011111,1.91E-03,1.2762,9.82E-04
1945,1.307788889,1.89E-03,1.2760,1.05E-03
1950,1.307555556,1.85E-03,1.2758,1.13E-03
1955,1.307305556,1.79E-03,1.2756,1.21E-03
1960,1.307038889,1.71E-03,1.2754,1.30E-03
1965,1.306750000,1.62E-03,1.2752,1.38E-03
1970,1.306438889,1.53E-03,1.2750,1.45E-03
1975,1.306111111,1.45E-03,1.2749,1.50E-03
1980,1.305772222,1.37E-03,1.2747,1.54E-03
1985,1.305422222,1.29E-03,1.2745,1.57E-03
1990,1.305061111,1.22E-03,1.2744,1.58E-03
1995,1.304694444,1.16E-03,1.2742,1.59E-03
2000,1.304333333,1.10E-03,1.2740,1.59E-03
2005,1.303972222,1.05E-03,1.2739,1.58E-03
2010,1.303611111,9.96E-04,1.2737,1.57E-03
2015,1.303250000,9.48E-04,1.2735,1.56E-03
2020,1.302888889,9.02E-04,1.2733,1.54E-03
2025,1.302522222,8.57E-04,1.2731,1.52E-03
2030,1.302155556,8.14E-04,1.2729,1.49E-03
2035,1.301794444,7.74E-04,1.2727,1.46E-03
2040,1.301433333,7.37E-04,1.2724,1.42E-03
2045,1.301083333,7.04E-04,1.2722,1.38E-03
2050,1.300750000,6.77E-04,1.2720,1.34E-03
2055,1.300427778,6.51E-04,1.2717,1.30E-03
2060,1.300122222,6.26E-04,1.2715,1.26E-03
2065,1.299827778,6.01E-04,1.2712,1.22E-03
2070,1.299533333,5.74E-04,1.2710,1.18E-03
2075,1.299233333,5.49E-04,1.2707,1.14E-03
2080,1.298938889,5.27E-04,1.2705,1.09E-03
2085,1.298650000,5.08E-04,1.2702,1.05E-03
2090,1.298366667,4.92E-04,1.2699,1.00E-03
2095,1.298088889,4.78E-04,1.2696,9.53E-04
2100,1.297805556,4.65E-04,1.2693,8.99E-04
2105,1.297522222,4.53E-04,1.2690,8.41E-04
2110,1.297238889,4.40E-04,1.2687,7.81E-04
2115,1.296961111,4.28E-04,1.2684,7.20E-04
2120,1.296683333,4.17E-04,1.2680,6.62E-04
2125,1.296405556,4.06E-04,1.2677,6.10E-04
2130,1.296133333,3.95E-04,1.2674,5.65E-04
2135,1.295861111,3.85E-04,1.2670,5.26E-04
2140,1.295588889,3.76E-04,1.2666,4.90E-04
2145,1.295322222,3.68E-04,1.2663,4.59E-04
2150,1.295050000,3.60E-04,1.2659,4.32E-04
2155,1.294783333,3.53E-04,1.2655,4.09E-04
2160,1.294522222,3.49E-04,1.2652,3.88E-04
2165,1.294272222,3.45E-04,1.2648,3.68E-04
2170,1.294016667,3.43E-04,1.2644,3.50E-04
2175,1.293755556,3.41E-04,1.2640,3.33E-04
2180,1.293483333,3.39E-04,1.2636,3.17E-04
2185,1.293200000,3.39E-04,1.2632,3.01E-04
2190,1.292911111,3.38E-04,1.2628,2.87E-04
2195,1.292611111,3.38E-04,1.2624,2.74E-04
2200,1.292300000,3.38E-04,1.2620,2.61E-04
2205,1.291977778,3.38E-04,1.2616,2.50E-04
2210,1.291644444,3.39E-04,1.2612,2.39E-04
2215,1.291300000,3.40E-04,1.2608,2.30E-04
2220,1.290944444,3.43E-04,1.2604,2.21E-04
2225,1.290577778,3.48E-04,1.2599,2.14E-04
2230,1.290200000,3.53E-04,1.2595,2.10E-04
2235,1.289811111,3.59E-04,1.2590,2.06E-04
2240,1.289422222,3.66E-04,1.2586,2.03E-04
2245,1.289022222,3.73E-04,1.2582,2.01E-04
2250,1.288622222,3.80E-04,1.2577,2.03E-04
2255,1.288222222,3.88E-04,1.2572,2.08E-04
2260,1.287822222,3.95E-04,1.2568,2.14E-04
2265,1.287411111,4.03E-04,1.2563,2.22E-04
2270,1.286988889,4.12E-04,1.2558,2.32E-04
2275,1.286555556,4.20E-04,1.2553,2.44E-04
2280,1.286116667,4.29E-04,1.2548,2.57E-04
2285,1.285672222,4.38E-04,1.2543,2.72E-04
2290,1.285233333,4.47E-04,1.2538,2.89E-04
2295,1.284800000,4.57E-04,1.2533,3.09E-04
2300,1.284372222,4.68E-04,1.2528,3.33E-04
2305,1.283944444,4.79E-04,1.2523,3.58E-04
2310,1.283511111,4.92E-04,1.2518,3.81E-04
2315,1.283066667,5.07E-04,1.2513,4.01E-04
2320,1.282616667,5.23E-04,1.2507,4.21E-04
2325,1.282161111,5.40E-04,1.2502,4.42E-04
2330,1.281688889,5.58E-04,1.2497,4.62E-04
2335,1.281211111,5.77E-04,1.2491,4.83E-04
2340,1.280727778,5.97E-04,1.2486,5.05E-04
2345,1.280233333,6.17E-04,1.2480,5.27E-04
2350,1.279738889,6.39E-04,1.2475,5.48E-04
2355,1.279250000,6.61E-04,1.2469,5.67E-04
2360,1.278766667,6.85E-04,1.2463,5.85E-04
2365,1.278288889,7.09E-04,1.2457,6.02E-04
2370,1.277805556,7.34E-04,1.2451,6.18E-04
2375,1.277316667,7.60E-04,1.2445,6.34E-04
2380,1.276805556,7.87E-04,1.2439,6.51E-04
2385,1.276266667,8.14E-04,1.2433,6.66E-04
2390,1.275705556,8.43E-04,1.2427,6.80E-04
2395,1.275127778,8.72E-04,1.2420,6.92E-04
2400,1.274527778,9.03E-04,1.2414,7.05E-04
2405,1.273916667,9.36E-04,1.2407,7.17E-04
2410,1.273283333,9.71E-04,1.2400,7.30E-04
2415,1.272633333,1.01E-03,1.2394,7.43E-04
2420,1.271966667,1.05E-03,1.2387,7.56E-04
2425,1.271288889,1.10E-03,1.2380,7.69E-04
2430,1.270600000,1.14E-03,1.2372,7.82E-04
2435,1.269911111,1.19E-03,1.2365,7.94E-04
2440,1.269216667,1.24E-03,1.2358,8.06E-04
2445,1.268516667,1.29E-03,1.2350,8.17E-04
2450,1.267805556,1.34E-03,1.2343,8.27E-04
2455,1.267083333,1.40E-03,1.2335,8.37E-04
2460,1.266711765,1.45E-03,1.2327,8.48E-04
2465,1.266331250,1.51E-03,1.2319,8.59E-04
2470,1.265946667,1.57E-03,1.2311,8.70E-04
2475,1.265564286,1.63E-03,1.2302,8.81E-04
2480,1.265176923,1.69E-03,1.2294,8.92E-04
2485,1.264783333,1.75E-03,1.2285,9.02E-04
2490,1.264400000,1.81E-03,1.2276,9.11E-04
2495,1.264020000,1.86E-03,1.2267,9.19E-04
2500,1.263655556,1.90E-03,1.2258,9.25E-04

